<Actel_Data_File>
    <format name="NVM File" version="01.00.00"/>
    <header>
        <die>
            M2S010
        </die>
        <family>
            SmartFusion2
        </family>
        <module>
            
        </module>
        <package>
            484 FBGA
        </package>
        <version>
            11.6.1.6
        </version>
    </header>
    <nvm>
        <region name="Main_App" address="0x000000" retrieveAddressFromFile="false" size="12256" format="HEX" type="Data Storage" wordSize="8" numberWords="12256" memFile="C:/PULSAR/Projects/PPI/PoweredRail/Eval_Board_SOC/m2s010-som-fg484-1a-116-Rev1a_d_TxCol/SoftConsole/m2s010_som_sb_MSS_CM3/m2s010_som_sb_MSS_CM3_app/Release/m2s010_som_sb_MSS_CM3_app.hex" memType="INTELHEX" memFileTimeStamp="1473713961" clientType="public" program="true">
            00000120910100007f030000810300008303000085030000870300000000
            0000000000000000000000000000890300008b030000000000008d030000
            8f03000091030000930300009503000097030000990300009b0300009d03
            00009f030000a1030000a303000015200000f51f0000a9030000ab030000
            ad030000af030000b1030000b3030000b5030000b7030000b9030000bb03
            0000bd030000bf030000c1030000c3030000c5030000c7030000c9030000
            cb030000cd030000cf030000d1030000d3030000d5030000d7030000d903
            0000db030000dd030000df030000e1030000e3030000e5030000e7030000
            e9030000eb030000ed030000ef030000f1030000f3030000f5030000f703
            0000f9030000fb030000fd030000ff030000010400000304000005040000
            07040000090400000b0400000d0400000f04000011040000130400001504
            000017040000190400001b0400001d0400001f0400002104000023040000
            2504000027040000290400002b0400002d0400002f040000310400003304
            000000000000000000004ff0000bdff8be020068dff8b612096801f00301
            00f01c00142801d14bf0020b002901d04bf0010bbbf1000f05d0a748a749
            dff8722200f09ff8a64880470bf0020abaf1000f0cd0dff86e02dff86e12
            02680b680fb44ff000024ff0ff0302600b609d489d4a9e4b022808d1dff8
            3e120a60dff842120a60dff836120b60012808d1dff82e120a60dff82a12
            0a60dff81e120b609348002809d193489349944a00f032f893489449944a
            00f02df894489449954a00f028f894489549dff8e62100f05af8bbf1000f
            12d092489249dff8da2100f051f80bf0020abaf1000f07d00fbc02600b60
            00bfaff30080aff30080dff828020ff2030e00474ff000004ff00001dff8
            1cf2fee72de9f841884225d0b2eb010200d5fee740ea010313f0030302d0
            00f01df819e04ff0000390461211f7d09a421cbff0c8f0c103f10103f8d1
            08f00f08b8f1000f08d004780c7000f1010001f10101b8f10108f6d1bde8
            f88108b54ff0000303780b7000f1010001f10101013af7d108bd884237d0
            00f00306002e14d04ff00405a5eb06044ff0080707fb06f8914669fa08f9
            002c07d080f8009069fa07f900f10100013cf5e74ff000060f46091a8846
            0911914614461546b14206d018bfa0e8340206f10106b142f8d108f00f08
            b8f1000f07d002704fea322200f10100b8f10108f4e77047fee7fee7fee7
            fee7fee7fee7fee7fee7fee7fee7fee7fee7fee7fee7fee7fee7fee7fee7
            fee7fee7fee7fee7fee7fee7fee7fee7fee7fee7fee7fee7fee7fee7fee7
            fee7fee7fee7fee7fee7fee7fee7fee7fee7fee7fee7fee7fee7fee7fee7
            fee7fee7fee7fee7fee7fee7fee7fee7fee7fee7fee7fee7fee7fee7fee7
            fee7fee7fee7fee7fee7fee7fee7fee7fee7fee7fee7fee7fee7fee7fee7
            fee7fee7fee7fee7fee7fee7fee7fee7fee7fee7fee7fee7fee770470000
            0000a2a2a2a2008003400880034010800340308003403480034038800340
            18080240000000f00020000001207d260000000000000000000001000000
            00000000000000000000000090010000c0040000c0040000c02f0000c02f
            0000000000202000002020000020b0000020b000002000f00020bd260000
            f1040000aff30080aff30080aff3008040f22003c2f200031a780ab90120
            1870704700bf40f20000c2f2000008b503682bb140f20003c0f2000303b1
            984708bd80b5adf5876d00af07f10802a2f1040242f6cc43c0f200039446
            93e807008ce8070040f21403c5f20003c7f8103440f21003c5f20003c7f8
            1434d7f814344ff090021a6001f08cff40f22400c2f200004ff461414ff0
            030201f052ff40f22400c2f2000042f20c71c0f2000101f024fc07f10803
            a3f1040340f22400c2f2000019464ff00c0201f0c1fb00f05ffd00f083fd
            d7f810341b68c7f82c344ff00803c7f8203440f20643c7f8283440f2a923
            c7f8243400e000bf07f1100340f22400c2f2000019464ff4806201f033fc
            0346c7f81c3407f110031b7887f81b34d7f81c34002be7d007f1100340f2
            2400c2f200001946d7f81c2401f088fb97f81b34a3f13103342b00f21583
            01a252f823f0d50600001d07000065070000ad070000090800005d080000
            bd080000190900006d090000250c0000250c0000250c0000250c0000250c
            0000250c0000250c0000250c0000250c0000250c0000250c0000250c0000
            250c0000250c0000250c0000250c0000250c0000250c0000250c0000250c
            0000250c0000250c0000250c0000250c0000250c0000250c0000250c0000
            250c0000250c0000250c0000250c0000250c0000250c0000250c0000250c
            0000250c0000250c0000250c0000250c0000cd090000410a0000a90a0000
            210b00008d0b000000f0cafa40f22400c2f2000042f6bc11c0f2000101f0
            5efb40f22400c2f2000042f20c71c0f2000101f054fb07f10803a3f10403
            40f22400c2f2000019464ff00c0201f0f1faa5e240f22400c2f2000042f6
            c411c0f2000101f03cfb00f0aafc40f22400c2f2000042f20c71c0f20001
            01f030fb07f10803a3f1040340f22400c2f2000019464ff00c0201f0cdfa
            81e240f22400c2f2000042f6e411c0f2000101f018fb00f060fc40f22400
            c2f2000042f20c71c0f2000101f00cfb07f10803a3f1040340f22400c2f2
            000019464ff00c0201f0a9fa5de240f22400c2f2000042f60421c0f20001
            01f0f4fa4ff00103c7f83034d7f82404d7f82014d7f8302400f0a4fb40f2
            2400c2f2000042f20c71c0f2000101f0defa07f10803a3f1040340f22400
            c2f2000019464ff00c0201f07bfa2fe240f22400c2f2000042f64021c0f2
            000101f0c6fad7f82404d7f820144ff0000200f050fc40f22400c2f20000
            42f20c71c0f2000101f0b4fa07f10803a3f1040340f22400c2f200001946
            4ff00c0201f051fa05e240f22400c2f2000042f68021c0f2000101f09cfa
            4ff00103c7f83034d7f82404d7f82014d7f82824d7f8303400f048fd40f2
            2400c2f2000042f20c71c0f2000101f084fa07f10803a3f1040340f22400
            c2f2000019464ff00c0201f021fad5e140f22400c2f2000042f6e021c0f2
            000101f06cfa4ff00203c7f83034d7f82404d7f82014d7f8302400f01cfb
            40f22400c2f2000042f20c71c0f2000101f056fa07f10803a3f1040340f2
            2400c2f2000019464ff00c0201f0f3f9a7e140f22400c2f2000042f61c31
            c0f2000101f03efad7f82404d7f820144ff0000200f0c8fb40f22400c2f2
            000042f20c71c0f2000101f02cfa07f10803a3f1040340f22400c2f20000
            19464ff00c0201f0c9f97de140f22400c2f2000042f65c31c0f2000101f0
            14fa4ff00203c7f83034d7f82404d7f82014d7f82824d7f8303400f0c0fc
            40f22400c2f2000042f20c71c0f2000101f0fcf907f10803a3f1040340f2
            2400c2f2000019464ff00c0201f099f94de140f22400c2f2000042f6a831
            c0f2000101f0e4f940f2f933c7f820344ff42a73c7f824344ff00003c7f8
            3434d7f82404d7f82014d7f8342400f0cafc40f22400c2f2000042f20c71
            c0f2000101f0c6f907f10803a3f1040340f22400c2f2000019464ff00c02
            01f063f940f2a923c7f8243413e140f22400c2f2000042f6dc31c0f20001
            01f0aaf940f2f933c7f820344ff42a73c7f82434d7f82404d7f8201400f0
            3cfd40f22400c2f2000042f20c71c0f2000101f092f907f10803a3f10403
            40f22400c2f2000019464ff00c0201f02ff940f2a923c7f82434dfe040f2
            2400c2f2000042f61841c0f2000101f076f94ff00803c7f820344ff42a73
            c7f824344ff00003c7f83434d7f82404d7f82014d7f82824d7f8343401f0
            3ef840f22400c2f2000042f20c71c0f2000101f056f907f10803a3f10403
            40f22400c2f2000019464ff00c0201f0f3f840f2a923c7f82434a3e040f2
            2400c2f2000042f65041c0f2000101f03af94ff00803c7f820344ff42a73
            c7f82434d7f82404d7f82014d7f8282401f054f840f22400c2f2000042f2
            0c71c0f2000101f020f907f10803a3f1040340f22400c2f2000019464ff0
            0c0201f0bdf840f2a923c7f824346de040f22400c2f2000042f68841c0f2
            000101f004f94ff40073c7f824344ff47a73c7f820344ff48033c7f82834
            4ff00103c7f83434d7f82404d7f82014d7f82824d7f8343401f04cf840f2
            2400c2f2000042f20c71c0f2000101f0e0f807f10803a3f1040340f22400
            c2f2000019464ff00c0201f07df840f2a923c7f824344ff00803c7f82034
            40f20643c7f828344ff00003c7f8343421e040f22400c2f2000042f6ac41
            c0f2000101f0b8f840f22400c2f2000042f20c71c0f2000101f0aef807f1
            0803a3f1040340f22400c2f2000019464ff00c0201f04bf89fe49ee400bf
            80b590b000af4ff0a043bb6040f20403c5f20003fb6040f21003c5f20003
            3b6140f21403c5f200037b6140f21803c5f20003bb6140f21c03c5f20003
            fb6140f22403c5f200033b6240f22c03c5f200037b6240f23003c5f20003
            bb6240f23403c5f20003fb6240f22400c2f2000042f6d841c0f2000101f0
            61f8bb681b683b633b6b3a461046194600f0cafa3b4640f22400c2f20000
            19464ff0080200f0f8ff40f22400c2f2000042f60051c0f2000101f044f8
            fb681b683b633b6b3a461046194600f0adfa3b4640f22400c2f200001946
            4ff0080200f0dbff40f22400c2f2000042f62851c0f2000101f027f83b69
            1b683b633b6b3a461046194600f090fa3b4640f22400c2f2000019464ff0
            080200f0beff40f22400c2f2000042f65051c0f2000101f00af87b691b68
            3b633b6b3a461046194600f073fa3b4640f22400c2f2000019464ff00802
            00f0a1ff40f22400c2f2000042f67851c0f2000100f0edffbb691b683b63
            3b6b3a461046194600f056fa3b4640f22400c2f2000019464ff0080200f0
            84ff40f22400c2f2000042f6a051c0f2000100f0d0fffb691b683b633b6b
            3a461046194600f039fa3b4640f22400c2f2000019464ff0080200f067ff
            40f22400c2f2000042f6c851c0f2000100f0b3ff3b6a1b683b633b6b3a46
            1046194600f01cfa3b4640f22400c2f2000019464ff0080200f04aff40f2
            2400c2f2000042f6f051c0f2000100f096ff7b6a1b683b633b6b3a461046
            194600f0fff93b4640f22400c2f2000019464ff0080200f02dff40f22400
            c2f2000042f61861c0f2000100f079ffbb6a1b683b633b6b3a4610461946
            00f0e2f93b4640f22400c2f2000019464ff0080200f010ff40f22400c2f2
            000042f64061c0f2000100f05cfffb6a1b683b633b6b3a461046194600f0
            c5f93b4640f22400c2f2000019464ff0080200f0f3fe07f14007bd4680bd
            00bf80b497b000aff860b9607a604ff0a0437b6140f20403c5f20003bb61
            40f20803c5f20003fb6140f20c03c5f200033b6240f21003c5f200037b62
            40f21403c5f20003bb6240f21803c5f20003fb6240f21c03c5f200033b63
            40f23003c5f200037b6340f23403c5f20003bb63bb6a4ff0ff021a60bb68
            a3f10603fb63fb684fea1323bb64fb6803f0ff03fb647b6bba6c1a60bb6b
            fa6c1a60bb684fea13233b65fb684fea93033b64fb684fea83137b64fb69
            3a6c1a60fb697a6c1a60fb693a6d1a60fb69ba681a604ff000037b6506e0
            fb697a6d1a607b6d03f101037b65fb6b03f101027b6d9a42f2d87b68012b
            04d17b6a4ff030021a600be07b68022b04d17b6a4ff022021a6003e07b6a
            4ff020021a6007f15c07bd4680bc704780b485b000af40f21003c5f20003
            7b607b684ff090021a607b681b68bb604ff00003fb6003e0fb6803f10103
            fb60fa6840f2ff439a42f6d97b684ff010021a6007f11407bd4680bc7047
            00bf80b483b000af40f21003c5f200033b603b684ff050021a604ff00003
            7b6003e07b6803f101037b607a6840f2ff139a42f6d93b684ff010021a60
            07f10c07bd4680bc704790b5a3b000aff860b9607a6042f66863c0f20003
            07f1280c1c460fccace80f0094e80700ace80300acf800200cf1020c4fea
            12438cf8003042f68463c0f2000307f1140c1c460fccace80f002368acf8
            003040f20803c5f200037b6440f20c03c5f20003bb6440f21003c5f20003
            fb6440f21403c5f200033b6540f21803c5f200037b65bb68a3f10603bb65
            fb684fea9303fb65fb684fea831303f0ff033b66bb684fea13237b66bb68
            03f0ff03bb664ff00003fb6708e03b6d1b68c7f88430d7f8843003f04003
            fb67fb6f002bf3d03b6d4ff040021a604ff000037b67bb6c1b68bb67ba6f
            fb6d9a4202d04ff001037b67bb6c1b68bb67ba6f3b6e9a4202d04ff00103
            7b67bb6c1b68bb67ba6f7b6e9a4202d04ff001037b67bb6c1b68bb67ba6f
            bb6e9a4202d04ff001037b674ff00003fb6611e0bb6c1b68bb67fb6e03f0
            ff033b67ba6f3b6f9a4202d04ff001037b67fb6e03f10103fb66bb6d03f1
            0102fb6e9a42e7d8bb6c1b68bb67bb6c1b68bb677b6f012b0dd107f12803
            40f22400c2f2000019464ff01b0200f051fd4ff001030fe07b68002b0ad1
            07f1140340f22400c2f2000019464ff0120200f040fd4ff00003184607f1
            8c07bd4690bd00bf80b487b000af786039604ff00703fb604ff000033b61
            4ff00003fb753b68bb604ff000033b6109e03a697b6813444ff030021a70
            3b6903f101033b613b69072bf2dd1de0bb68dbb203f00f03fb75fb7d092b
            04d8fb7d03f13003fb7503e0fb7d03f13703fb75fa687b681344fa7d1a70
            fb6803f1ff33fb60bb684fea1313bb60bb68002bded107f11c07bd4680bc
            704780b588b000aff860b9607a603b604ff00003bb617b683b614ff00003
            3b6119e0ba683b6913447b61f86879693a68fff7e9fdf86879694ff00102
            fff7b9fe0346012b03d1bb6903f10103bb613b6903f101033b613a697b68
            9a42e1d3bb69002b09d140f22400c2f2000042f69861c0f2000100f00bfd
            07f12007bd4680bd00bf80b499b000aff860b9607a604ff0a0437b6140f2
            0403c5f20003bb6140f20803c5f20003fb6140f20c03c5f200033b6240f2
            1003c5f200037b6240f21403c5f20003bb6240f21803c5f20003fb6240f2
            1c03c5f200033b6340f23003c5f200037b6340f23403c5f20003bb63bb6a
            4ff0ff021a60bb68a3f10603fb63fb684fea1323bb64fb6803f0ff03fb64
            7b6bba6c1a60bb6bfa6c1a60bb684fea13233b65fb684fea93033b64fb68
            4fea83137b64fb693a6c1a60fb697a6c1a60fb693a6d1a60fb69ba681a60
            4ff000037b6506e0fb697a6d1a607b6d03f101037b65fb6b03f101027b6d
            9a42f2d87b6a4ff020021a604ff00003bb6506e0bb6a1b68fb65fb6d03f0
            8003bb65bb6d002bf5d0bb6a4ff080021a607b68002b11d14ff000037b65
            06e0bb6a1b68fb657b6d03f101037b657a6d4ff6fe73c0f203039a42f1d9
            07f16407bd4680bc704700bf80b5a8b000af7860396042f66863c0f20003
            07f1280c9e46bee80f00ace80f009ee80700ace80300acf800200cf1020c
            4fea12438cf8003042f68463c0f2000307f1140c9e46bee80f00ace80f00
            def80030acf8003040f20803c5f200037b6440f20c03c5f20003bb6440f2
            1003c5f20003fb6440f21403c5f200033b6540f21803c5f200037b6540f2
            2403c5f200033b6640f23003c5f20003bb6540f23403c5f20003fb653b6d
            4ff0ff021a607b684fea13233b677b6803f0ff037b67bb6d3a6f1a60fb6d
            7a6f1a60fb6c4ff000021a603b68a3f106037b667b684fea9303bb667b68
            4fea831303f0ff03fb663b684fea1323bb673b6803f0ff03fb674ff00003
            c7f8903009e03b6d1b68c7f89830d7f8983003f04003c7f89030d7f89030
            002bf1d03b6d4ff040021a604ff00003c7f88830bb6c1b68c7f88c30d7f8
            8c20bb6e9a426fd040f22400c2f2000042f6b461c0f2000100f0b3fb3b6e
            4ff001021a603b6e4ff000021a6040f22400c2f2000042f6cc61c0f20001
            00f0a1fb3b6d1b68c7f89830d7f8983007f1080210461946fff707fe07f1
            080340f22400c2f2000019464ff0080200f034fb40f22400c2f2000042f6
            ec61c0f2000100f080fbbb6e07f1080210461946fff7ebfd07f1080340f2
            2400c2f2000019464ff0080200f018fb40f22400c2f2000042f60071c0f2
            000100f064fbd7f88c3007f1080210461946fff7cefd07f1080340f22400
            c2f2000019464ff0080200f0fbfa4ff00103c7f88830bb6c1b68c7f88c30
            d7f88c20fb6e9a426fd040f22400c2f2000042f61471c0f2000100f03afb
            3b6e4ff001021a603b6e4ff000021a6040f22400c2f2000042f6cc61c0f2
            000100f028fb3b6d1b68c7f89830d7f8983007f1080210461946fff78efd
            07f1080340f22400c2f2000019464ff0080200f0bbfa40f22400c2f20000
            42f6ec61c0f2000100f007fbfb6e07f1080210461946fff772fd07f10803
            40f22400c2f2000019464ff0080200f09ffa40f22400c2f2000042f60071
            c0f2000100f0ebfad7f88c3007f1080210461946fff755fd07f1080340f2
            2400c2f2000019464ff0080200f082fa4ff00103c7f88830bb6c1b68c7f8
            8c30d7f88c20bb6f9a426fd040f22400c2f2000042f62c71c0f2000100f0
            c1fa3b6e4ff001021a603b6e4ff000021a6040f22400c2f2000042f6cc61
            c0f2000100f0affa3b6d1b68c7f89830d7f8983007f1080210461946fff7
            15fd07f1080340f22400c2f2000019464ff0080200f042fa40f22400c2f2
            000042f6ec61c0f2000100f08efabb6f07f1080210461946fff7f9fc07f1
            080340f22400c2f2000019464ff0080200f026fa40f22400c2f2000042f6
            0071c0f2000100f072fad7f88c3007f1080210461946fff7dcfc07f10803
            40f22400c2f2000019464ff0080200f009fa4ff00103c7f88830bb6c1b68
            c7f88c30d7f88c20fb6f9a426fd040f22400c2f2000042f64471c0f20001
            00f048fa3b6e4ff001021a603b6e4ff000021a6040f22400c2f2000042f6
            cc61c0f2000100f036fa3b6d1b68c7f89830d7f8983007f1080210461946
            fff79cfc07f1080340f22400c2f2000019464ff0080200f0c9f940f22400
            c2f2000042f6ec61c0f2000100f015fafb6f07f1080210461946fff780fc
            07f1080340f22400c2f2000019464ff0080200f0adf940f22400c2f20000
            42f60071c0f2000100f0f9f9d7f88c3007f1080210461946fff763fc07f1
            080340f22400c2f2000019464ff0080200f090f94ff00103c7f888304ff0
            0003c7f8803086e0bb6c1b68c7f88c30d7f8803003f0ff03c7f88430d7f8
            8c20d7f884309a4270d040f22400c2f2000042f65c71c0f2000100f0c3f9
            3b6e4ff001021a603b6e4ff000021a6040f22400c2f2000042f6cc61c0f2
            000100f0b1f93b6d1b68c7f89830d7f8983007f1080210461946fff717fc
            07f1080340f22400c2f2000019464ff0080200f044f940f22400c2f20000
            42f6ec61c0f2000100f090f9d7f8843007f1080210461946fff7fafb07f1
            080340f22400c2f2000019464ff0080200f027f940f22400c2f2000042f6
            0071c0f2000100f073f9d7f88c3007f1080210461946fff7ddfb07f10803
            40f22400c2f2000019464ff0080200f00af94ff00103c7f88830d7f88030
            03f10103c7f880307b6e03f10102d7f880309a423ff671afbb6c1b68c7f8
            8c30bb6c1b68c7f88c30d7f88830012b0dd107f1280340f22400c2f20000
            19464ff01b0200f0e1f84ff001030ce007f1140340f22400c2f200001946
            4ff0120200f0d3f84ff00003184607f1a007bd4680bd80b5adf5856d00af
            07f1180cacf10c0cccf8000007f10800016007f10801a1f104010a603a46
            13604ff00003c7f81c3407f10803a3f104031b68c7f814344ff00003c7f8
            143418e007f108031a68d7f814341344c7f8183407f11803a3f10c033a46
            1868d7f818141268fff7e5fbd7f8143403f10103c7f8143407f10803a3f1
            0403d7f814241b689a42ddd307f1280707f58067bd4680bd80b588b000af
            f860b9607a604ff00003bb617b683b614ff000033b6112e0ba683b691344
            7b61f8687969fff75ffc0346012b03d1bb6903f10103bb613b6903f10103
            3b613a697b689a42e8d3bb69002b09d140f22400c2f2000042f69861c0f2
            000100f0a3f807f12007bd4680bd00bf80b5adf5856d00af07f1180cacf1
            0c0cccf8000007f10800016007f10801a1f104010a603a4613604ff00003
            c7f81c3407f10803a3f104031b68c7f814344ff00003c7f8143414e04ff4
            7f73c7f8183407f11803a3f10c033a461868d7f818141268fff765fbd7f8
            143403f10103c7f8143407f10803a3f10403d7f814241b689a42e1d307f1
            280707f58067bd4680bd40f26403c2f2000398422de9f00508d040f2240c
            c2f2000c604502d0bde8f00570470b1e18bf0123002a0cbf002303f00103
            002bf2d090f80d80d0f800a000259af814c048ea0c081cf0200f80f80d80
            23d00f2a24d910274e5d0468012307f1ff3c26700cea030605eb030c4d19
            bb4211d236b1ee5c0223bb4226700cf1010c09d2ee5c01332670ee5c0133
            bb4226700cf1020cf5d36546d21a002ad0d1bde70ab11746d8e71346d21a
            f6e740f26403c2f2000398422de9f00508d040f22402c2f20002904202d0
            bde8f00570470029fad00d78002df7d0427b04684ff0000c237d1a4313f0
            200ffad0427325b96346002de9d09c46f3e7d0f800a0002601eb0c080136
            8af8005018f8065006eb0c032f1e18bf01270f2e8cbf002707f00107002f
            e5d0ede700bf40f26403c2f20003984270b409d040f2240cc2f2000c6045
            03d00023184670bc70470b1e18bf0123002a0cbf002303f00103002bf1d0
            046890f80dc0237d43ea0c0c13f0010f80f80dc0e6d000232578cd540468
            467b94f814c001334cea06069a4294bf00250cf001054673002deed1d4e7
            00bf40f26403c2f20003984210b5044606d040f22400c2f20000844200d0
            10bd2268117a01f00f0cbcf10c0ff7d801a151f82cf000bf1d1f0000b51e
            0000151f0000251f00000d1f0000b51e0000011f0000b51e0000b51e0000
            b51e0000b51e0000b51e00000d1f0000e369002bd6d02046984710bd236a
            002bf9d1cfe7636a002bf5d1cbe7a36a002bf1d1c7e7283222f07f4020f4
            700302f07041580101f1007c5cf8003013f0ff0f05d0e36a1bb120469847
            2268283202f0704022f07f4c00f100732cf47001181d4901435813f0ff0f
            05d0236b1bb1204698472268283202f0704322f07f4c03f100702cf47001
            08304901435813f0ff0f05d0636b1bb1204698472268283202f0704322f0
            7f4c2cf4700003f100730c334101585810f0ff0f05d0a36b1bb120469847
            2268283222f07f4c02f0704101f100722cf4700310325801115811f0ff0f
            3ff468afe36b002b3ff464af2046984760e700bf684620f007018d4601b5
            40f22400c2f20000fff747ffbde801408546704700bf684620f007018d46
            01b540f26400c2f20000fff737ffbde801408546704700bf40f26403c2f2
            0003984270b407d040f22401c2f20001884201d070bc70470469002cfad0
            4369002bf7d0016890f80dc00a7d42ea0c0c12f0200f80f80dc0826929d0
            9d1a0f2d38d91025a41826786b1e0e7003f00106012301329d42826119d9
            46b194f801c0022301329d4281f800c082610fd914f803c0013281f800c0
            0133826114f803c0013301329d4281f800c08261efd843699a42bfd10268
            0021131d23f07f4c03f0704202f100732cf470020433520199504161afe7
            002dc5d1eae72de9f04f40f264038fb0c2f200030b9248f200029842c4f2
            030204460d91906c4ef2001100f0298140f48077cef200014ff400669764
            c1f88061956c40f2000125f48070c4f2010190640b222271216000220d46
            0a7101f1100605f8082f01f1380a2af07f4b01f1340925f07f4726f07f48
            05f0704506f070460af0704acdf810a0069529f07f4006f1007503900195
            09f07049049dcdf81c90ddf80c9005f1007529f4700a0a952bf47009079d
            ddf818b0cdf814900bf1007905f1007b049d01f1300c2cf07f4005f10075
            0cf0704ccdf80ca004950cf100750cf1007aac46039dcdf824a06d010395
            059d28f470086d010595069dca4605f100750695019d4fea481814350195
            079d27f4700705f100750795049d7f0104350495654614350895099dcdf8
            30801c3509950a9d4ff001080c350af1080a09f104090a9506f1007649f8
            07800c9d4af80780ddf818a010364af807807251ddf80ca0019e0bf1040b
            72514bf80a20ddf81cb0059d4bf80a20049eddf820a020f4700040010cf1
            180c7251ddf824b04af800204cf80020ddf828c09c424bf800204cf80520
            81f8442081f8482081f84c2079d040f22403c2f200039c4215d00b9d0020
            0d7360730d9e6061a66025732061a06120626062e061a062e06220636063
            a063e0630fb0bde8f08f0d9fa76000f004f940f21801c2f200010a680d9e
            d700b7fbf6f2d3095708b3f5803f28bf2168d5d2012b216850d901f10c00
            20f07f4c00f0704606f100702cf4700a4fea4a1e0d465ffa83f8a7eb8317
            1c300126c2f3c73a40f80e60a7ebc31381f804a005f8308b9a1825f07f43
            05f0704523f47008a2eb470705f100751c354fea4818ffb2002340f80e30
            45f8086081f83c709ee740f08007cef200014ff480669764c1f88061956c
            4ff0804125f0800090640a2222712160d7e60d9aa26000f0a6f840f21401
            c2f200010a68a0e701f10c0c2cf07f4e0cf070422ef4700502f100724fea
            451e08460025dbb21c32012642f80e600d7100f8303b20f07f4c00f07040
            00f100762cf470031c365b0142f80e50f5505de7f8b50446fff77efe2268
            4ff6ff7302f1340002f13005c0f20f0305f07047383200f0704102ea0306
            07f1007c1d4000ea030702f0704201f1007142f235007b010cf10c0c02f1
            00776d01002208317601c0f200004cf805206062ca50ba51f8bd48f20002
            c4f203022de9f005946c42f6747644f480139364906c4ef2001340f0f071
            9164c0f20006cef2000300220127551cb45c16f805a004f01f000af01f01
            17fa00f017fa01f14ffa8af862b254094fea581c6a1c04f1600a0cf16008
            20340cf1200c202a43f8240043f82a0043f82c1043f82810dbd148f20003
            c4f203039a6c22f0f0709864996c21f480129a64bde8f005704700bf2de9
            f00148f20003c4f20303d3f8982083b012f0806f19d1d3f8980010f4805f
            4ed042f6947cc0f2000c6a469ce8030082e80300d3f89c1002afc1f38216
            bd1915f8084c012c00f081806ad2d3f8500147f640084ff2800310f0040f
            c0f27d18c0f2fa2340f21c0540f2140440f2180040f208074af6e07c40f2
            0c0140f2100240f2040608bf4346c2f20005c2f20004c2f20000c2f20007
            c0f21d2cc2f20001c2f20002c2f20006c7f800c033602b60236003600b60
            136003b0bde8f001704740f21c054bf6807340f2140445f6c07240f21800
            40f2080c4af6e07840f20c0740f2100140f20406c0f67603c0f23b42c2f2
            0005c2f20004c2f20000c2f2000cc0f21d28c2f20007c2f20001c2f20006
            ccf800803a6033602b60226002600b60cae744f2402340f21c0540f21404
            40f2180040f208074af6e07c40f20c0140f2100240f20406c0f20f039de7
            40f21c0540f2140440f2180040f208074af6e07c40f20c0140f2100240f2
            0406c2f20005c2f20004c2f20000c2f20007c0f21d2cc2f20001c2f20002
            c2f200064ff400438ae700bf48f20003c4f20303d3f84c114ff602029142
            0bd1d3f8980040f48072c3f89820d3f8981021f08060c3f898004ef60053
            cef200035a6942f400715961fdf7bcbe70b542f6b47642f6b475c0f20006
            c0f20005761bb61006d0002455f8243001349847a642f9d842f6b47542f6
            b876c0f20005c0f20006761b00f052fcb61006d0002455f8243001349847
            a642f9d870bd0a0d0a0d205072657373206e756d62657220666f72204163
            74696f6e200a0d0a0d203120205265616420465047412052656769737465
            7273200a0d2032202052657365742052656365697665204649464f200a0d
            203320205265736574205472616e736d6974204649464f200a0d20342020
            5472616e736d69742053696e676c65205061636b6574202d20494e544552
            4e414c204c6f6f706261636b200a0d20352020526563656976652053696e
            676c65205061636b657420616e6420436865636b202d20494e5445524e41
            4c204c6f6f706261636b200a0d203620204c6f6f706261636b205061636b
            6574732066726f6d203820746f2031303233204279746573202620436865
            636b202d20494e5445524e414c204c6f6f706261636b200a0d2037202054
            72616e736d69742053696e676c65205061636b6574202d2045585445524e
            414c204c6f6f706261636b200a0d20382020526563656976652053696e67
            6c65205061636b657420616e6420436865636b202d2045585445524e414c
            204c6f6f706261636b200a0d203920205472616e736d6974205061636b65
            74732066726f6d203820746f203130323320427974657320262043686563
            6b202d2045585445524e414c204c6f6f706261636b200a0d206120205472
            616e736d697420426f617264203220426f6172642053696e676c65205061
            636b6574200a0d206220205265636569766520426f617264203220426f61
            72642053696e676c65205061636b657420616e6420436865636b200a0d20
            6320205472616e736d697420426f617264203220426f617264204d756c74
            69706c65205061636b657473200a0d206420205265636569766520426f61
            7264203220426f617264204d756c7469706c65205061636b657473200a0d
            206520205472616e736d6974205061636b657420426c61737465722e200a
            0d0000000a0d0a0d000000000a0d0a0d2052657365742052656365697665
            204649464f2e2e2e200a0d0000000a0d0a0d205265736574205472616e73
            6d6974204649464f2e2e2e200a0d00000a0d0a0d205472616e736d697474
            696e672053696e676c65205061636b6574202d20496e7465726e616c204c
            6f6f706261636b2e2e2e200a0d0000000a0d0a0d20526563656976652053
            69676e6c65205061636b657420616e6420436865636b202d20496e746572
            6e616c204c6f6f706261636b2e2e2e200a0d00000a0d0a0d204c6f6f7069
            6e67204261636b205061636b6574732052616e67696e6720696e2053697a
            652066726f6d203820427974657320746f2031303233204279746573202d
            20496e7465726e616c204c6f6f706261636b2e2e2e20200a0d000a0d0a0d
            205472616e736d697474696e672053696e676c65205061636b6574202d20
            45585445524e414c204c6f6f706261636b2e2e2e200a0d0000000a0d0a0d
            20526563656976652053696e676c65205061636b657420616e6420436865
            636b202d2045585445524e414c204c6f6f706261636b2e2e2e200a0d0000
            0a0d0a0d204c6f6f70696e67204261636b205061636b6574732052616e67
            65203820746f2031303233204279746573202d2045585445524e414c204c
            6f6f706261636b2e2e2e20200a0d00000a0d0a0d205472616e736d697469
            6e6720426f61726420746f20426f6172642053696e676c65205061636b65
            742e2e2e200a0d000a0d0a0d20526563656976696e6720426f6172642074
            6f20426f6172642053696e676c65205061636b657420616e642043686563
            6b2e2e2e200a0d000a0d0a0d205472616e736d697474696e6720426f6172
            6420746f20426f617264204d756c7469706c65205061636b6574732e2e2e
            200a0d000a0d0a0d20526563656976696e6720426f61726420746f20426f
            617264204d756c7469706c65205061636b6574732e2e2e200a0d00000000
            0a0d0a0d205472616e736d6974205061636b657420426c61737465722e20
            0a0d000000000a0d0a0d20507265737320616e79206e756d6265722e2e2e
            200a0d0a0d0000000a0d20456e7465723a2020000a0d0a0d202046504741
            205265766973696f6e2052656769737465723a2020202020202030780000
            0a0d2020465047412053637261746368205061642052656769737465723a
            202020203078000000000a0d20204650474120436f6e74726f6c20526567
            69737465723a20202020202020203078000000000a0d2020465047412049
            6e746572727570742052656769737465723a202020202020307800000000
            0a0d20204650474120496e74657272757074204d61736b20526567697374
            65723a203078000000000a0d202046504741205374617475732052656769
            737465723a2020202020202020203078000000000a0d2020465047412042
            4c2f55534220436f6e74726f6c2052656769737465723a20307800000000
            0a0d20204650474120424c2f555342205374617475732052656769737465
            723a20203078000000000a0d202046504741204869676820416464726573
            732052656769737465723a2020203078000000000a0d202046504741204c
            6f7720416464726573732052656769737465723a20202020307800000000
            0a0d20212121212121204641494c4544205258205041434b455400000a0d
            2050415353205258205041434b45540000000a0d20414c4c205041434b45
            5453205041535345442e2e2e200a0d000a0d204869676820416464726573
            73204661696c2020000020204650474120496e7465727275707420526567
            69737465723a2020203078002020202045787065637465643a2020203078
            00002020202041637475616c3a2020203078000000000a0d204c6f772041
            646472657373204661696c20202000000a0d2048696768204c656e677468
            204661696c20202000000a0d204c6f77204c656e677468204661696c2020
            202000000a0d2044617461204661696c2020202020202020202000003233
            3435363738393a3b3c3d3e3f404142434445464748494a4b4c4d4e4f5051
            0001000102020303f8b500bff8bc08bc9e467047f8b500bff8bc08bc9e46
            7047d5040000c1040000000000000000000080bf7608e0af1d02c05f3b04
            80bf7608c05f3b04c05f3b0480bf7608
            <crc>
                b58f
            </crc>
        </region>
    </nvm>
</Actel_Data_File>
